TITLE	
DATA TYPE	
ORIGIN	JASCO
OWNER	
DATE	24/11/28
TIME	17:02:58
SPECTROMETER/DATA SYSTEM	JASCO Corp., V-560, Rev. 1.00
RESOLUTION	
DELTAX	-1
XUNITS	NANOMETERS
YUNITS	REFLECTANCE
FIRSTX	800.0000
LASTX	300.0000
NPOINTS	501
FIRSTY	0.10999
MAXY	0.70780
MINY	0.07121
XYDATA
800.0000	10.999
799.0000	10.885
798.0000	10.834
797.0000	10.877
796.0000	10.793
795.0000	10.765
794.0000	10.73
793.0000	10.678
792.0000	10.738
791.0000	10.727
790.0000	10.695
789.0000	10.758
788.0000	10.806
787.0000	10.766
786.0000	10.809
785.0000	10.827
784.0000	10.842
783.0000	10.774
782.0000	10.818
781.0000	10.826
780.0000	10.788
779.0000	10.752
778.0000	10.72
777.0000	10.75
776.0000	10.703
775.0000	10.676
774.0000	10.664
773.0000	10.683
772.0000	10.752
771.0000	10.741
770.0000	10.794
769.0000	10.752
768.0000	10.696
767.0000	10.672
766.0000	10.67
765.0000	10.597
764.0000	10.562
763.0000	10.544
762.0000	10.576
761.0000	10.596
760.0000	10.559
759.0000	10.529
758.0000	10.483
757.0000	10.482
756.0000	10.451
755.0000	10.442
754.0000	10.415
753.0000	10.358
752.0000	10.367
751.0000	10.446
750.0000	10.419
749.0000	10.49
748.0000	10.492
747.0000	10.503
746.0000	10.625
745.0000	10.631
744.0000	10.603
743.0000	10.555
742.0000	10.569
741.0000	10.553
740.0000	10.373
739.0000	10.385
738.0000	10.345
737.0000	10.346
736.0000	10.351
735.0000	10.345
734.0000	10.303
733.0000	10.31
732.0000	10.322
731.0000	10.325
730.0000	10.312
729.0000	10.341
728.0000	10.368
727.0000	10.337
726.0000	10.328
725.0000	10.334
724.0000	10.284
723.0000	10.264
722.0000	10.235
721.0000	10.204
720.0000	10.213
719.0000	10.2
718.0000	10.241
717.0000	10.234
716.0000	10.25
715.0000	10.263
714.0000	10.261
713.0000	10.239
712.0000	10.202
711.0000	10.207
710.0000	10.207
709.0000	10.19
708.0000	10.119
707.0000	10.12
706.0000	10.102
705.0000	10.107
704.0000	10.084
703.0000	10.099
702.0000	10.108
701.0000	10.087
700.0000	10.056
699.0000	10.063
698.0000	10.015
697.0000	10.033
696.0000	10.031
695.0000	10.042
694.0000	10.065
693.0000	10.082
692.0000	10.074
691.0000	10.08
690.0000	10.055
689.0000	10.064
688.0000	10.043
687.0000	10.02
686.0000	10.017
685.0000	9.977
684.0000	9.914
683.0000	9.876
682.0000	9.849
681.0000	9.82
680.0000	9.794
679.0000	9.82
678.0000	9.825
677.0000	9.812
676.0000	9.785
675.0000	9.781
674.0000	9.773
673.0000	9.737
672.0000	9.711
671.0000	9.696
670.0000	9.71
669.0000	9.662
668.0000	9.657
667.0000	9.651
666.0000	9.648
665.0000	9.667
664.0000	9.651
663.0000	9.638
662.0000	9.62
661.0000	9.588
660.0000	9.566
659.0000	9.529
658.0000	9.537
657.0000	9.489
656.0000	9.488
655.0000	9.475
654.0000	9.469
653.0000	9.489
652.0000	9.459
651.0000	9.439
650.0000	9.425
649.0000	9.422
648.0000	9.41
647.0000	9.393
646.0000	9.356
645.0000	9.386
644.0000	9.345
643.0000	9.315
642.0000	9.309
641.0000	9.269
640.0000	9.264
639.0000	9.221
638.0000	9.199
637.0000	9.181
636.0000	9.194
635.0000	9.154
634.0000	9.146
633.0000	9.108
632.0000	9.081
631.0000	9.054
630.0000	9.012
629.0000	8.984
628.0000	8.968
627.0000	8.952
626.0000	8.932
625.0000	8.918
624.0000	8.927
623.0000	8.918
622.0000	8.895
621.0000	8.868
620.0000	8.849
619.0000	8.841
618.0000	8.788
617.0000	8.758
616.0000	8.73
615.0000	8.707
614.0000	8.678
613.0000	8.629
612.0000	8.587
611.0000	8.552
610.0000	8.5
609.0000	8.472
608.0000	8.443
607.0000	8.403
606.0000	8.399
605.0000	8.379
604.0000	8.351
603.0000	8.347
602.0000	8.319
601.0000	8.298
600.0000	8.282
599.0000	8.267
598.0000	8.263
597.0000	8.24
596.0000	8.23
595.0000	8.224
594.0000	8.198
593.0000	8.177
592.0000	8.163
591.0000	8.127
590.0000	8.125
589.0000	8.096
588.0000	8.075
587.0000	8.051
586.0000	8
585.0000	7.966
584.0000	7.948
583.0000	7.909
582.0000	7.88
581.0000	7.868
580.0000	7.849
579.0000	7.837
578.0000	7.79
577.0000	7.753
576.0000	7.749
575.0000	7.719
574.0000	7.694
573.0000	7.676
572.0000	7.645
571.0000	7.641
570.0000	7.615
569.0000	7.579
568.0000	7.55
567.0000	7.517
566.0000	7.49
565.0000	7.469
564.0000	7.449
563.0000	7.439
562.0000	7.417
561.0000	7.398
560.0000	7.381
559.0000	7.369
558.0000	7.333
557.0000	7.305
556.0000	7.272
555.0000	7.268
554.0000	7.247
553.0000	7.217
552.0000	7.208
551.0000	7.188
550.0000	7.185
549.0000	7.182
548.0000	7.154
547.0000	7.138
546.0000	7.145
545.0000	7.131
544.0000	7.129
543.0000	7.126
542.0000	7.121
541.0000	7.125
540.0000	7.146
539.0000	7.154
538.0000	7.15
537.0000	7.158
536.0000	7.185
535.0000	7.205
534.0000	7.206
533.0000	7.233
532.0000	7.265
531.0000	7.287
530.0000	7.311
529.0000	7.354
528.0000	7.379
527.0000	7.425
526.0000	7.468
525.0000	7.506
524.0000	7.527
523.0000	7.579
522.0000	7.628
521.0000	7.667
520.0000	7.794
519.0000	7.841
518.0000	7.883
517.0000	7.932
516.0000	7.985
515.0000	8.034
514.0000	8.116
513.0000	8.197
512.0000	8.288
511.0000	8.369
510.0000	8.465
509.0000	8.566
508.0000	8.657
507.0000	8.758
506.0000	8.851
505.0000	8.951
504.0000	9.06
503.0000	9.161
502.0000	9.28
501.0000	9.393
500.0000	9.504
499.0000	9.627
498.0000	9.746
497.0000	9.854
496.0000	9.994
495.0000	10.102
494.0000	10.227
493.0000	10.362
492.0000	10.491
491.0000	10.633
490.0000	10.768
489.0000	10.9
488.0000	11.029
487.0000	11.164
486.0000	11.294
485.0000	11.43
484.0000	11.561
483.0000	11.695
482.0000	11.851
481.0000	12.002
480.0000	12.15
479.0000	12.302
478.0000	12.455
477.0000	12.628
476.0000	12.786
475.0000	12.939
474.0000	13.102
473.0000	13.27
472.0000	13.426
471.0000	13.566
470.0000	13.738
469.0000	13.9
468.0000	14.045
467.0000	14.214
466.0000	14.392
465.0000	14.553
464.0000	14.727
463.0000	14.891
462.0000	15.066
461.0000	15.228
460.0000	15.417
459.0000	15.63
458.0000	15.81
457.0000	16.015
456.0000	16.198
455.0000	16.395
454.0000	16.571
453.0000	16.726
452.0000	16.894
451.0000	17.071
450.0000	17.235
449.0000	17.396
448.0000	17.579
447.0000	17.766
446.0000	17.954
445.0000	18.134
444.0000	18.288
443.0000	18.489
442.0000	18.703
441.0000	18.923
440.0000	19.123
439.0000	19.312
438.0000	19.531
437.0000	19.748
436.0000	19.939
435.0000	20.092
434.0000	20.241
433.0000	20.442
432.0000	20.616
431.0000	20.816
430.0000	21.052
429.0000	21.246
428.0000	21.5
427.0000	21.765
426.0000	22.032
425.0000	22.243
424.0000	22.433
423.0000	22.626
422.0000	22.839
421.0000	23.093
420.0000	23.61
419.0000	23.787
418.0000	23.948
417.0000	24.077
416.0000	24.296
415.0000	24.544
414.0000	24.814
413.0000	25.079
412.0000	25.335
411.0000	25.574
410.0000	25.853
409.0000	26.135
408.0000	26.386
407.0000	26.627
406.0000	26.885
405.0000	27.128
404.0000	27.383
403.0000	27.701
402.0000	27.96
401.0000	28.321
400.0000	28.623
399.0000	29.015
398.0000	29.434
397.0000	29.804
396.0000	30.197
395.0000	30.568
394.0000	30.977
393.0000	31.361
392.0000	31.759
391.0000	32.191
390.0000	32.673
389.0000	33.145
388.0000	33.573
387.0000	34.09
386.0000	34.667
385.0000	35.319
384.0000	35.831
383.0000	36.467
382.0000	37.208
381.0000	37.895
380.0000	38.663
379.0000	39.393
378.0000	40.353
377.0000	41.325
376.0000	42.208
375.0000	43.188
374.0000	43.999
373.0000	44.861
372.0000	45.605
371.0000	46.327
370.0000	48.155
369.0000	48.701
368.0000	49.149
367.0000	49.491
366.0000	50.171
365.0000	50.697
364.0000	51.103
363.0000	51.599
362.0000	52.036
361.0000	52.494
360.0000	52.935
359.0000	53.311
358.0000	53.612
357.0000	54.033
356.0000	54.403
355.0000	54.73
354.0000	54.983
353.0000	55.191
352.0000	55.55
351.0000	55.733
350.0000	56.039
349.0000	56.255
348.0000	56.434
347.0000	56.57
346.0000	56.868
345.0000	57.184
344.0000	57.367
343.0000	57.527
342.0000	57.83
341.0000	57.951
340.0000	58.237
339.0000	58.142
338.0000	58.126
337.0000	58.369
336.0000	58.306
335.0000	58.301
334.0000	58.265
333.0000	58.222
332.0000	58.308
331.0000	58.045
330.0000	57.736
329.0000	57.861
328.0000	57.708
327.0000	57.483
326.0000	57.185
325.0000	57.128
324.0000	56.701
323.0000	56.795
322.0000	56.699
321.0000	56.809
320.0000	56.571
319.0000	56.982
318.0000	57.339
317.0000	57.501
316.0000	57.962
315.0000	58.463
314.0000	59.207
313.0000	59.659
312.0000	60.151
311.0000	60.716
310.0000	61.15
309.0000	61.879
308.0000	62.314
307.0000	63.193
306.0000	63.821
305.0000	64.812
304.0000	65.778
303.0000	66.778
302.0000	67.813
301.0000	69.244
300.0000	70.78
