TITLE	
DATA TYPE	
ORIGIN	JASCO
OWNER	
DATE	24/11/28
TIME	16:59:27
SPECTROMETER/DATA SYSTEM	JASCO Corp., V-560, Rev. 1.00
RESOLUTION	
DELTAX	-1
XUNITS	NANOMETERS
YUNITS	REFLECTANCE
FIRSTX	800.0000
LASTX	300.0000
NPOINTS	501
FIRSTY	0.30726
MAXY	0.97767
MINY	0.30457
XYDATA
800.0000	30.726
799.0000	30.504
798.0000	30.457
797.0000	30.489
796.0000	30.606
795.0000	30.697
794.0000	30.703
793.0000	30.731
792.0000	30.843
791.0000	30.764
790.0000	30.681
789.0000	30.649
788.0000	30.551
787.0000	30.625
786.0000	30.678
785.0000	30.642
784.0000	30.782
783.0000	30.661
782.0000	30.757
781.0000	30.695
780.0000	30.705
779.0000	30.651
778.0000	30.691
777.0000	30.815
776.0000	30.727
775.0000	30.731
774.0000	30.821
773.0000	30.913
772.0000	30.849
771.0000	30.875
770.0000	30.889
769.0000	30.896
768.0000	30.869
767.0000	30.757
766.0000	30.668
765.0000	30.692
764.0000	30.653
763.0000	30.781
762.0000	30.834
761.0000	30.87
760.0000	31.03
759.0000	31.048
758.0000	31.025
757.0000	31.092
756.0000	31.041
755.0000	31.108
754.0000	31.096
753.0000	31.103
752.0000	31.083
751.0000	31.175
750.0000	31.144
749.0000	31.27
748.0000	31.292
747.0000	31.403
746.0000	31.45
745.0000	31.457
744.0000	31.416
743.0000	31.53
742.0000	31.49
741.0000	31.425
740.0000	31.305
739.0000	31.201
738.0000	31.168
737.0000	31.299
736.0000	31.29
735.0000	31.308
734.0000	31.34
733.0000	31.265
732.0000	31.408
731.0000	31.416
730.0000	31.312
729.0000	31.347
728.0000	31.39
727.0000	31.541
726.0000	31.519
725.0000	31.47
724.0000	31.485
723.0000	31.56
722.0000	31.515
721.0000	31.497
720.0000	31.471
719.0000	31.434
718.0000	31.532
717.0000	31.578
716.0000	31.611
715.0000	31.712
714.0000	31.751
713.0000	31.764
712.0000	31.824
711.0000	31.818
710.0000	31.799
709.0000	31.889
708.0000	31.88
707.0000	31.91
706.0000	31.965
705.0000	31.954
704.0000	31.923
703.0000	31.88
702.0000	31.921
701.0000	31.774
700.0000	31.775
699.0000	31.801
698.0000	31.882
697.0000	31.863
696.0000	31.973
695.0000	32.036
694.0000	32.112
693.0000	32.145
692.0000	32.101
691.0000	32.124
690.0000	32.062
689.0000	32.117
688.0000	32.106
687.0000	32.163
686.0000	32.194
685.0000	32.173
684.0000	32.186
683.0000	32.188
682.0000	32.151
681.0000	32.152
680.0000	32.116
679.0000	32.21
678.0000	32.219
677.0000	32.261
676.0000	32.273
675.0000	32.32
674.0000	32.367
673.0000	32.368
672.0000	32.379
671.0000	32.401
670.0000	32.489
669.0000	32.554
668.0000	32.483
667.0000	32.476
666.0000	32.486
665.0000	32.619
664.0000	32.586
663.0000	32.534
662.0000	32.576
661.0000	32.639
660.0000	32.704
659.0000	32.702
658.0000	32.782
657.0000	32.841
656.0000	32.793
655.0000	32.844
654.0000	32.895
653.0000	32.86
652.0000	32.886
651.0000	32.851
650.0000	32.886
649.0000	32.877
648.0000	32.928
647.0000	32.939
646.0000	32.998
645.0000	33.067
644.0000	33.125
643.0000	33.158
642.0000	33.155
641.0000	33.112
640.0000	33.139
639.0000	33.166
638.0000	33.15
637.0000	33.224
636.0000	33.214
635.0000	33.226
634.0000	33.265
633.0000	33.29
632.0000	33.335
631.0000	33.294
630.0000	33.326
629.0000	33.344
628.0000	33.392
627.0000	33.461
626.0000	33.445
625.0000	33.483
624.0000	33.543
623.0000	33.56
622.0000	33.528
621.0000	33.565
620.0000	33.582
619.0000	33.584
618.0000	33.592
617.0000	33.605
616.0000	33.671
615.0000	33.725
614.0000	33.765
613.0000	33.801
612.0000	33.832
611.0000	33.835
610.0000	33.877
609.0000	33.852
608.0000	33.935
607.0000	33.973
606.0000	34.015
605.0000	34.085
604.0000	34.067
603.0000	34.161
602.0000	34.148
601.0000	34.194
600.0000	34.233
599.0000	34.241
598.0000	34.273
597.0000	34.281
596.0000	34.323
595.0000	34.353
594.0000	34.381
593.0000	34.431
592.0000	34.483
591.0000	34.556
590.0000	34.545
589.0000	34.53
588.0000	34.539
587.0000	34.582
586.0000	34.61
585.0000	34.688
584.0000	34.752
583.0000	34.786
582.0000	34.806
581.0000	34.887
580.0000	34.926
579.0000	34.932
578.0000	34.992
577.0000	35.017
576.0000	35.104
575.0000	35.168
574.0000	35.202
573.0000	35.194
572.0000	35.154
571.0000	35.21
570.0000	35.237
569.0000	35.255
568.0000	35.3
567.0000	35.32
566.0000	35.368
565.0000	35.462
564.0000	35.517
563.0000	35.6
562.0000	35.595
561.0000	35.65
560.0000	35.714
559.0000	35.762
558.0000	35.741
557.0000	35.781
556.0000	35.855
555.0000	35.945
554.0000	35.973
553.0000	36.008
552.0000	36.102
551.0000	36.11
550.0000	36.168
549.0000	36.203
548.0000	36.236
547.0000	36.288
546.0000	36.283
545.0000	36.283
544.0000	36.316
543.0000	36.38
542.0000	36.406
541.0000	36.458
540.0000	36.498
539.0000	36.584
538.0000	36.623
537.0000	36.662
536.0000	36.695
535.0000	36.746
534.0000	36.811
533.0000	36.887
532.0000	36.95
531.0000	37.024
530.0000	37.051
529.0000	37.112
528.0000	37.17
527.0000	37.194
526.0000	37.249
525.0000	37.347
524.0000	37.415
523.0000	37.494
522.0000	37.573
521.0000	37.647
520.0000	37.781
519.0000	37.806
518.0000	37.842
517.0000	37.892
516.0000	37.918
515.0000	37.932
514.0000	38.004
513.0000	38.119
512.0000	38.238
511.0000	38.347
510.0000	38.419
509.0000	38.55
508.0000	38.58
507.0000	38.631
506.0000	38.64
505.0000	38.695
504.0000	38.763
503.0000	38.786
502.0000	38.884
501.0000	39.005
500.0000	39.071
499.0000	39.115
498.0000	39.185
497.0000	39.214
496.0000	39.3
495.0000	39.339
494.0000	39.354
493.0000	39.498
492.0000	39.524
491.0000	39.608
490.0000	39.727
489.0000	39.823
488.0000	39.906
487.0000	39.985
486.0000	40.046
485.0000	40.15
484.0000	40.198
483.0000	40.283
482.0000	40.388
481.0000	40.449
480.0000	40.632
479.0000	40.697
478.0000	40.8
477.0000	40.911
476.0000	40.961
475.0000	41.018
474.0000	41.11
473.0000	41.227
472.0000	41.315
471.0000	41.359
470.0000	41.478
469.0000	41.651
468.0000	41.765
467.0000	41.878
466.0000	41.991
465.0000	42.126
464.0000	42.222
463.0000	42.382
462.0000	42.43
461.0000	42.538
460.0000	42.653
459.0000	42.774
458.0000	42.935
457.0000	43.048
456.0000	43.195
455.0000	43.296
454.0000	43.45
453.0000	43.592
452.0000	43.779
451.0000	43.931
450.0000	44.058
449.0000	44.243
448.0000	44.33
447.0000	44.443
446.0000	44.535
445.0000	44.645
444.0000	44.768
443.0000	44.882
442.0000	45.02
441.0000	45.197
440.0000	45.314
439.0000	45.44
438.0000	45.677
437.0000	45.772
436.0000	45.911
435.0000	46.09
434.0000	46.222
433.0000	46.421
432.0000	46.569
431.0000	46.785
430.0000	46.995
429.0000	47.15
428.0000	47.336
427.0000	47.628
426.0000	47.805
425.0000	47.944
424.0000	48.155
423.0000	48.417
422.0000	48.554
421.0000	48.824
420.0000	49.249
419.0000	49.329
418.0000	49.475
417.0000	49.66
416.0000	49.836
415.0000	50.184
414.0000	50.382
413.0000	50.717
412.0000	51.049
411.0000	51.246
410.0000	51.535
409.0000	51.807
408.0000	52.038
407.0000	52.365
406.0000	52.665
405.0000	52.955
404.0000	53.223
403.0000	53.517
402.0000	53.829
401.0000	54.145
400.0000	54.407
399.0000	54.778
398.0000	55.083
397.0000	55.458
396.0000	55.86
395.0000	56.258
394.0000	56.654
393.0000	57.113
392.0000	57.606
391.0000	58.14
390.0000	58.682
389.0000	59.102
388.0000	59.577
387.0000	60.024
386.0000	60.463
385.0000	60.981
384.0000	61.336
383.0000	61.904
382.0000	62.559
381.0000	63.171
380.0000	63.866
379.0000	64.455
378.0000	65.284
377.0000	65.992
376.0000	66.706
375.0000	67.466
374.0000	68.225
373.0000	68.907
372.0000	69.624
371.0000	70.224
370.0000	71.468
369.0000	71.847
368.0000	71.945
367.0000	71.92
366.0000	72.2
365.0000	72.503
364.0000	72.531
363.0000	72.598
362.0000	72.607
361.0000	72.559
360.0000	72.337
359.0000	72.212
358.0000	72.122
357.0000	71.961
356.0000	72.187
355.0000	72.067
354.0000	71.97
353.0000	71.827
352.0000	71.986
351.0000	71.871
350.0000	71.948
349.0000	72.045
348.0000	71.997
347.0000	72.059
346.0000	72.366
345.0000	72.614
344.0000	72.573
343.0000	72.57
342.0000	73.245
341.0000	73.201
340.0000	73.432
339.0000	73.492
338.0000	73.573
337.0000	73.618
336.0000	73.324
335.0000	73.836
334.0000	74.384
333.0000	74.793
332.0000	75.138
331.0000	75.266
330.0000	75.453
329.0000	75.793
328.0000	76.309
327.0000	76.987
326.0000	77.145
325.0000	78.109
324.0000	78.591
323.0000	79.295
322.0000	79.63
321.0000	80.457
320.0000	80.31
319.0000	80.562
318.0000	81.065
317.0000	81.805
316.0000	82.568
315.0000	83.046
314.0000	84.036
313.0000	85.517
312.0000	86.398
311.0000	87.049
310.0000	87.819
309.0000	88.451
308.0000	88.726
307.0000	89.64
306.0000	90.245
305.0000	91.339
304.0000	92.197
303.0000	93.241
302.0000	94.57
301.0000	95.811
300.0000	97.767
